ref: simulated example

wavelength (nm)	n	k
2.500000e+02	1.070733e+00	1.081770e+00
2.510000e+02	1.076704e+00	1.093043e+00
2.520000e+02	1.082835e+00	1.104229e+00
2.530000e+02	1.089123e+00	1.115326e+00
2.540000e+02	1.095567e+00	1.126332e+00
2.550000e+02	1.102165e+00	1.137243e+00
2.560000e+02	1.108915e+00	1.148057e+00
2.570000e+02	1.115814e+00	1.158772e+00
2.580000e+02	1.122860e+00	1.169385e+00
2.590000e+02	1.130052e+00	1.179893e+00
2.600000e+02	1.137392e+00	1.190291e+00
2.610000e+02	1.144875e+00	1.200577e+00
2.620000e+02	1.152497e+00	1.210750e+00
2.630000e+02	1.160255e+00	1.220808e+00
2.640000e+02	1.168146e+00	1.230749e+00
2.650000e+02	1.176174e+00	1.240567e+00
2.660000e+02	1.184335e+00	1.250257e+00
2.670000e+02	1.192622e+00	1.259822e+00
2.680000e+02	1.201032e+00	1.269261e+00
2.690000e+02	1.209568e+00	1.278565e+00
2.700000e+02	1.218228e+00	1.287730e+00
2.710000e+02	1.227001e+00	1.296763e+00
2.720000e+02	1.235889e+00	1.305656e+00
2.730000e+02	1.244894e+00	1.314400e+00
2.740000e+02	1.254004e+00	1.323003e+00
2.750000e+02	1.263219e+00	1.331461e+00
2.760000e+02	1.272542e+00	1.339760e+00
2.770000e+02	1.281959e+00	1.347915e+00
2.780000e+02	1.291475e+00	1.355910e+00
2.790000e+02	1.301083e+00	1.363748e+00
2.800000e+02	1.310775e+00	1.371434e+00
2.810000e+02	1.320560e+00	1.378945e+00
2.820000e+02	1.330419e+00	1.386305e+00
2.830000e+02	1.340360e+00	1.393490e+00
2.840000e+02	1.350371e+00	1.400514e+00
2.850000e+02	1.360452e+00	1.407365e+00
2.860000e+02	1.370597e+00	1.414047e+00
2.870000e+02	1.380802e+00	1.420557e+00
2.880000e+02	1.391063e+00	1.426893e+00
2.890000e+02	1.401374e+00	1.433055e+00
2.900000e+02	1.411732e+00	1.439041e+00
2.910000e+02	1.422133e+00	1.444848e+00
2.920000e+02	1.432569e+00	1.450482e+00
2.930000e+02	1.443039e+00	1.455932e+00
2.940000e+02	1.453534e+00	1.461214e+00
2.950000e+02	1.464053e+00	1.466301e+00
2.960000e+02	1.474587e+00	1.471226e+00
2.970000e+02	1.485135e+00	1.475958e+00
2.980000e+02	1.495689e+00	1.480518e+00
2.990000e+02	1.506245e+00	1.484904e+00
3.000000e+02	1.516797e+00	1.489102e+00
3.010000e+02	1.527342e+00	1.493137e+00
3.020000e+02	1.537872e+00	1.496987e+00
3.030000e+02	1.548384e+00	1.500663e+00
3.040000e+02	1.558874e+00	1.504179e+00
3.050000e+02	1.569332e+00	1.507509e+00
3.060000e+02	1.579757e+00	1.510675e+00
3.070000e+02	1.590147e+00	1.513685e+00
3.080000e+02	1.600489e+00	1.516517e+00
3.090000e+02	1.610784e+00	1.519191e+00
3.100000e+02	1.621030e+00	1.521714e+00
3.110000e+02	1.631216e+00	1.524078e+00
3.120000e+02	1.641338e+00	1.526282e+00
3.130000e+02	1.651397e+00	1.528345e+00
3.140000e+02	1.661390e+00	1.530268e+00
3.150000e+02	1.671303e+00	1.532039e+00
3.160000e+02	1.681139e+00	1.533672e+00
3.170000e+02	1.690896e+00	1.535177e+00
3.180000e+02	1.700572e+00	1.536557e+00
3.190000e+02	1.710156e+00	1.537806e+00
3.200000e+02	1.719646e+00	1.538930e+00
3.210000e+02	1.729046e+00	1.539943e+00
3.220000e+02	1.738353e+00	1.540848e+00
3.230000e+02	1.747564e+00	1.541650e+00
3.240000e+02	1.756668e+00	1.542343e+00
3.250000e+02	1.765669e+00	1.542939e+00
3.260000e+02	1.774567e+00	1.543447e+00
3.270000e+02	1.783363e+00	1.543870e+00
3.280000e+02	1.792055e+00	1.544214e+00
3.290000e+02	1.800641e+00	1.544483e+00
3.300000e+02	1.809114e+00	1.544678e+00
3.310000e+02	1.817476e+00	1.544806e+00
3.320000e+02	1.825732e+00	1.544876e+00
3.330000e+02	1.833881e+00	1.544891e+00
3.340000e+02	1.841923e+00	1.544857e+00
3.350000e+02	1.849859e+00	1.544779e+00
3.360000e+02	1.857690e+00	1.544661e+00
3.370000e+02	1.865416e+00	1.544508e+00
3.380000e+02	1.873039e+00	1.544325e+00
3.390000e+02	1.880554e+00	1.544115e+00
3.400000e+02	1.887967e+00	1.543884e+00
3.410000e+02	1.895283e+00	1.543638e+00
3.420000e+02	1.902502e+00	1.543379e+00
3.430000e+02	1.909628e+00	1.543113e+00
3.440000e+02	1.916662e+00	1.542842e+00
3.450000e+02	1.923608e+00	1.542572e+00
3.460000e+02	1.930467e+00	1.542306e+00
3.470000e+02	1.937243e+00	1.542046e+00
3.480000e+02	1.943940e+00	1.541797e+00
3.490000e+02	1.950559e+00	1.541562e+00
3.500000e+02	1.957105e+00	1.541344e+00
3.510000e+02	1.963581e+00	1.541145e+00
3.520000e+02	1.969991e+00	1.540967e+00
3.530000e+02	1.976338e+00	1.540815e+00
3.540000e+02	1.982626e+00	1.540688e+00
3.550000e+02	1.988859e+00	1.540590e+00
3.560000e+02	1.995042e+00	1.540522e+00
3.570000e+02	2.001177e+00	1.540486e+00
3.580000e+02	2.007269e+00	1.540482e+00
3.590000e+02	2.013322e+00	1.540512e+00
3.600000e+02	2.019341e+00	1.540577e+00
3.610000e+02	2.025329e+00	1.540677e+00
3.620000e+02	2.031289e+00	1.540813e+00
3.630000e+02	2.037228e+00	1.540985e+00
3.640000e+02	2.043147e+00	1.541192e+00
3.650000e+02	2.049051e+00	1.541435e+00
3.660000e+02	2.054945e+00	1.541713e+00
3.670000e+02	2.060831e+00	1.542025e+00
3.680000e+02	2.066714e+00	1.542374e+00
3.690000e+02	2.072598e+00	1.542756e+00
3.700000e+02	2.078486e+00	1.543169e+00
3.710000e+02	2.084382e+00	1.543611e+00
3.720000e+02	2.090290e+00	1.544082e+00
3.730000e+02	2.096212e+00	1.544580e+00
3.740000e+02	2.102152e+00	1.545101e+00
3.750000e+02	2.108112e+00	1.545646e+00
3.760000e+02	2.114096e+00	1.546211e+00
3.770000e+02	2.120107e+00	1.546795e+00
3.780000e+02	2.126151e+00	1.547395e+00
3.790000e+02	2.132226e+00	1.548009e+00
3.800000e+02	2.138336e+00	1.548631e+00
3.810000e+02	2.144482e+00	1.549261e+00
3.820000e+02	2.150665e+00	1.549895e+00
3.830000e+02	2.156888e+00	1.550531e+00
3.840000e+02	2.163155e+00	1.551164e+00
3.850000e+02	2.169471e+00	1.551792e+00
3.860000e+02	2.175832e+00	1.552410e+00
3.870000e+02	2.182238e+00	1.553016e+00
3.880000e+02	2.188689e+00	1.553607e+00
3.890000e+02	2.195187e+00	1.554180e+00
3.900000e+02	2.201738e+00	1.554729e+00
3.910000e+02	2.208344e+00	1.555249e+00
3.920000e+02	2.214997e+00	1.555738e+00
3.930000e+02	2.221698e+00	1.556196e+00
3.940000e+02	2.228445e+00	1.556618e+00
3.950000e+02	2.235243e+00	1.557000e+00
3.960000e+02	2.242099e+00	1.557328e+00
3.970000e+02	2.248999e+00	1.557610e+00
3.980000e+02	2.255944e+00	1.557843e+00
3.990000e+02	2.262932e+00	1.558026e+00
4.000000e+02	2.269970e+00	1.558142e+00
4.010000e+02	2.277055e+00	1.558190e+00
4.020000e+02	2.284178e+00	1.558177e+00
4.030000e+02	2.291338e+00	1.558101e+00
4.040000e+02	2.298536e+00	1.557954e+00
4.050000e+02	2.305778e+00	1.557714e+00
4.060000e+02	2.313049e+00	1.557403e+00
4.070000e+02	2.320348e+00	1.557019e+00
4.080000e+02	2.327674e+00	1.556555e+00
4.090000e+02	2.335033e+00	1.555980e+00
4.100000e+02	2.342411e+00	1.555327e+00
4.110000e+02	2.349806e+00	1.554593e+00
4.120000e+02	2.357218e+00	1.553762e+00
4.130000e+02	2.364646e+00	1.552817e+00
4.140000e+02	2.372081e+00	1.551786e+00
4.150000e+02	2.379522e+00	1.550671e+00
4.160000e+02	2.386966e+00	1.549433e+00
4.170000e+02	2.394407e+00	1.548090e+00
4.180000e+02	2.401844e+00	1.546661e+00
4.190000e+02	2.409274e+00	1.545132e+00
4.200000e+02	2.416686e+00	1.543467e+00
4.210000e+02	2.424084e+00	1.541714e+00
4.220000e+02	2.431466e+00	1.539875e+00
4.230000e+02	2.438814e+00	1.537892e+00
4.240000e+02	2.446135e+00	1.535814e+00
4.250000e+02	2.453430e+00	1.533651e+00
4.260000e+02	2.460682e+00	1.531359e+00
4.270000e+02	2.467890e+00	1.528958e+00
4.280000e+02	2.475062e+00	1.526475e+00
4.290000e+02	2.482181e+00	1.523875e+00
4.300000e+02	2.489240e+00	1.521160e+00
4.310000e+02	2.496255e+00	1.518367e+00
4.320000e+02	2.503205e+00	1.515464e+00
4.330000e+02	2.510080e+00	1.512448e+00
4.340000e+02	2.516904e+00	1.509361e+00
4.350000e+02	2.523650e+00	1.506166e+00
4.360000e+02	2.530310e+00	1.502868e+00
4.370000e+02	2.536914e+00	1.499505e+00
4.380000e+02	2.543420e+00	1.496034e+00
4.390000e+02	2.549837e+00	1.492477e+00
4.400000e+02	2.556195e+00	1.488862e+00
4.410000e+02	2.562428e+00	1.485136e+00
4.420000e+02	2.568579e+00	1.481346e+00
4.430000e+02	2.574663e+00	1.477501e+00
4.440000e+02	2.580597e+00	1.473548e+00
4.450000e+02	2.586464e+00	1.469553e+00
4.460000e+02	2.592230e+00	1.465493e+00
4.470000e+02	2.597864e+00	1.461358e+00
4.480000e+02	2.603432e+00	1.457188e+00
4.490000e+02	2.608854e+00	1.452944e+00
4.500000e+02	2.614178e+00	1.448658e+00
4.510000e+02	2.619420e+00	1.444336e+00
4.520000e+02	2.624494e+00	1.439952e+00
4.530000e+02	2.629502e+00	1.435545e+00
4.540000e+02	2.634371e+00	1.431094e+00
4.550000e+02	2.639123e+00	1.426614e+00
4.560000e+02	2.643799e+00	1.422114e+00
4.570000e+02	2.648294e+00	1.417577e+00
4.580000e+02	2.652725e+00	1.413030e+00
4.590000e+02	2.657010e+00	1.408462e+00
4.600000e+02	2.661184e+00	1.403883e+00
4.610000e+02	2.665269e+00	1.399296e+00
4.620000e+02	2.669186e+00	1.394703e+00
4.630000e+02	2.673047e+00	1.390108e+00
4.640000e+02	2.676735e+00	1.385516e+00
4.650000e+02	2.680344e+00	1.380930e+00
4.660000e+02	2.683832e+00	1.376351e+00
4.670000e+02	2.687194e+00	1.371788e+00
4.680000e+02	2.690485e+00	1.367233e+00
4.690000e+02	2.693604e+00	1.362709e+00
4.700000e+02	2.696678e+00	1.358193e+00
4.710000e+02	2.699582e+00	1.353717e+00
4.720000e+02	2.702424e+00	1.349259e+00
4.730000e+02	2.705139e+00	1.344838e+00
4.740000e+02	2.707756e+00	1.340451e+00
4.750000e+02	2.710286e+00	1.336094e+00
4.760000e+02	2.712687e+00	1.331790e+00
4.770000e+02	2.715036e+00	1.327507e+00
4.780000e+02	2.717230e+00	1.323297e+00
4.790000e+02	2.719396e+00	1.319102e+00
4.800000e+02	2.721400e+00	1.314994e+00
4.810000e+02	2.723373e+00	1.310905e+00
4.820000e+02	2.725213e+00	1.306897e+00
4.830000e+02	2.727003e+00	1.302924e+00
4.840000e+02	2.728686e+00	1.299025e+00
4.850000e+02	2.730304e+00	1.295176e+00
4.860000e+02	2.731837e+00	1.291393e+00
4.870000e+02	2.733295e+00	1.287675e+00
4.880000e+02	2.734685e+00	1.284015e+00
4.890000e+02	2.735992e+00	1.280435e+00
4.900000e+02	2.737247e+00	1.276905e+00
4.910000e+02	2.738416e+00	1.273468e+00
4.920000e+02	2.739545e+00	1.270074e+00
4.930000e+02	2.740586e+00	1.266784e+00
4.940000e+02	2.741597e+00	1.263532e+00
4.950000e+02	2.742522e+00	1.260393e+00
4.960000e+02	2.743423e+00	1.257288e+00
4.970000e+02	2.744244e+00	1.254304e+00
4.980000e+02	2.745044e+00	1.251350e+00
4.990000e+02	2.745771e+00	1.248521e+00
5.000000e+02	2.746480e+00	1.245723e+00
5.010000e+02	2.747123e+00	1.243052e+00
5.020000e+02	2.747750e+00	1.240413e+00
5.030000e+02	2.748321e+00	1.237900e+00
5.040000e+02	2.748875e+00	1.235424e+00
5.050000e+02	2.749383e+00	1.233069e+00
5.060000e+02	2.749875e+00	1.230757e+00
5.070000e+02	2.750330e+00	1.228559e+00
5.080000e+02	2.750768e+00	1.226415e+00
5.090000e+02	2.751180e+00	1.224372e+00
5.100000e+02	2.751575e+00	1.222398e+00
5.110000e+02	2.751952e+00	1.220509e+00
5.120000e+02	2.752313e+00	1.218704e+00
5.130000e+02	2.752664e+00	1.216967e+00
5.140000e+02	2.753001e+00	1.215333e+00
5.150000e+02	2.753335e+00	1.213745e+00
5.160000e+02	2.753658e+00	1.212282e+00
5.170000e+02	2.753980e+00	1.210840e+00
5.180000e+02	2.754299e+00	1.209547e+00
5.190000e+02	2.754618e+00	1.208255e+00
5.200000e+02	2.754942e+00	1.207125e+00
5.210000e+02	2.755267e+00	1.206002e+00
5.220000e+02	2.755603e+00	1.205011e+00
5.230000e+02	2.755944e+00	1.204057e+00
5.240000e+02	2.756298e+00	1.203199e+00
5.250000e+02	2.756664e+00	1.202412e+00
5.260000e+02	2.757042e+00	1.201684e+00
5.270000e+02	2.757442e+00	1.201061e+00
5.280000e+02	2.757848e+00	1.200458e+00
5.290000e+02	2.758293e+00	1.199997e+00
5.300000e+02	2.758738e+00	1.199536e+00
5.310000e+02	2.759230e+00	1.199213e+00
5.320000e+02	2.759730e+00	1.198910e+00
5.330000e+02	2.760267e+00	1.198700e+00
5.340000e+02	2.760829e+00	1.198552e+00
5.350000e+02	2.761414e+00	1.198450e+00
5.360000e+02	2.762049e+00	1.198453e+00
5.370000e+02	2.762685e+00	1.198457e+00
5.380000e+02	2.763402e+00	1.198605e+00
5.390000e+02	2.764119e+00	1.198754e+00
5.400000e+02	2.764896e+00	1.198997e+00
5.410000e+02	2.765705e+00	1.199288e+00
5.420000e+02	2.766543e+00	1.199620e+00
5.430000e+02	2.767452e+00	1.200047e+00
5.440000e+02	2.768361e+00	1.200474e+00
5.450000e+02	2.769370e+00	1.201021e+00
5.460000e+02	2.770387e+00	1.201579e+00
5.470000e+02	2.771466e+00	1.202201e+00
5.480000e+02	2.772601e+00	1.202882e+00
5.490000e+02	2.773749e+00	1.203575e+00
5.500000e+02	2.775009e+00	1.204372e+00
5.510000e+02	2.776269e+00	1.205170e+00
5.520000e+02	2.777619e+00	1.206040e+00
5.530000e+02	2.779013e+00	1.206947e+00
5.540000e+02	2.780436e+00	1.207875e+00
5.550000e+02	2.781971e+00	1.208883e+00
5.560000e+02	2.783507e+00	1.209891e+00
5.570000e+02	2.785150e+00	1.210966e+00
5.580000e+02	2.786834e+00	1.212067e+00
5.590000e+02	2.788553e+00	1.213186e+00
5.600000e+02	2.790393e+00	1.214371e+00
5.610000e+02	2.792234e+00	1.215556e+00
5.620000e+02	2.794188e+00	1.216793e+00
5.630000e+02	2.796192e+00	1.218052e+00
5.640000e+02	2.798219e+00	1.219320e+00
5.650000e+02	2.800393e+00	1.220644e+00
5.660000e+02	2.802567e+00	1.221968e+00
5.670000e+02	2.804840e+00	1.223322e+00
5.680000e+02	2.807191e+00	1.224700e+00
5.690000e+02	2.809541e+00	1.226078e+00
5.700000e+02	2.812066e+00	1.227497e+00
5.710000e+02	2.814598e+00	1.228917e+00
5.720000e+02	2.817194e+00	1.230349e+00
5.730000e+02	2.819913e+00	1.231801e+00
5.740000e+02	2.822632e+00	1.233253e+00
5.750000e+02	2.825484e+00	1.234718e+00
5.760000e+02	2.828395e+00	1.236189e+00
5.770000e+02	2.831310e+00	1.237660e+00
5.780000e+02	2.834417e+00	1.239137e+00
5.790000e+02	2.837523e+00	1.240614e+00
5.800000e+02	2.840695e+00	1.242090e+00
5.810000e+02	2.844001e+00	1.243560e+00
5.820000e+02	2.847308e+00	1.245031e+00
5.830000e+02	2.850736e+00	1.246489e+00
5.840000e+02	2.854245e+00	1.247939e+00
5.850000e+02	2.857753e+00	1.249388e+00
5.860000e+02	2.861437e+00	1.250808e+00
5.870000e+02	2.865150e+00	1.252224e+00
5.880000e+02	2.868880e+00	1.253634e+00
5.890000e+02	2.872798e+00	1.255000e+00
5.900000e+02	2.876717e+00	1.256365e+00
5.910000e+02	2.880694e+00	1.257712e+00
5.920000e+02	2.884818e+00	1.259013e+00
5.930000e+02	2.888943e+00	1.260314e+00
5.940000e+02	2.893161e+00	1.261578e+00
5.950000e+02	2.897491e+00	1.262798e+00
5.960000e+02	2.901821e+00	1.264019e+00
5.970000e+02	2.906274e+00	1.265181e+00
5.980000e+02	2.910808e+00	1.266305e+00
5.990000e+02	2.915342e+00	1.267429e+00
6.000000e+02	2.920021e+00	1.268472e+00
6.010000e+02	2.924756e+00	1.269483e+00
6.020000e+02	2.929491e+00	1.270495e+00
6.030000e+02	2.934386e+00	1.271401e+00
6.040000e+02	2.939318e+00	1.272283e+00
6.050000e+02	2.944251e+00	1.273165e+00
6.060000e+02	2.949351e+00	1.273920e+00
6.070000e+02	2.954476e+00	1.274656e+00
6.080000e+02	2.959600e+00	1.275392e+00
6.090000e+02	2.964894e+00	1.275980e+00
6.100000e+02	2.970204e+00	1.276554e+00
6.110000e+02	2.975514e+00	1.277127e+00
6.120000e+02	2.980987e+00	1.277537e+00
6.130000e+02	2.986475e+00	1.277930e+00
6.140000e+02	2.991963e+00	1.278324e+00
6.150000e+02	2.997601e+00	1.278543e+00
6.160000e+02	3.003258e+00	1.278741e+00
6.170000e+02	3.008915e+00	1.278939e+00
6.180000e+02	3.014704e+00	1.278958e+00
6.190000e+02	3.020518e+00	1.278943e+00
6.200000e+02	3.026333e+00	1.278928e+00
6.210000e+02	3.032257e+00	1.278741e+00
6.220000e+02	3.038217e+00	1.278497e+00
6.230000e+02	3.044177e+00	1.278252e+00
6.240000e+02	3.050220e+00	1.277853e+00
6.250000e+02	3.056312e+00	1.277364e+00
6.260000e+02	3.062404e+00	1.276876e+00
6.270000e+02	3.068552e+00	1.276261e+00
6.280000e+02	3.074760e+00	1.275513e+00
6.290000e+02	3.080968e+00	1.274764e+00
6.300000e+02	3.087206e+00	1.273933e+00
6.310000e+02	3.093512e+00	1.272911e+00
6.320000e+02	3.099819e+00	1.271889e+00
6.330000e+02	3.106133e+00	1.270841e+00
6.340000e+02	3.112519e+00	1.269533e+00
6.350000e+02	3.118906e+00	1.268225e+00
6.360000e+02	3.125293e+00	1.266917e+00
6.370000e+02	3.131730e+00	1.265357e+00
6.380000e+02	3.138176e+00	1.263750e+00
6.390000e+02	3.144623e+00	1.262144e+00
6.400000e+02	3.151090e+00	1.260363e+00
6.410000e+02	3.157574e+00	1.258449e+00
6.420000e+02	3.164058e+00	1.256535e+00
6.430000e+02	3.170546e+00	1.254540e+00
6.440000e+02	3.177045e+00	1.252309e+00
6.450000e+02	3.183544e+00	1.250078e+00
6.460000e+02	3.190042e+00	1.247847e+00
6.470000e+02	3.196532e+00	1.245324e+00
6.480000e+02	3.203020e+00	1.242770e+00
6.490000e+02	3.209509e+00	1.240216e+00
6.500000e+02	3.215979e+00	1.237490e+00
6.510000e+02	3.222432e+00	1.234609e+00
6.520000e+02	3.228885e+00	1.231727e+00
6.530000e+02	3.235331e+00	1.228811e+00
6.540000e+02	3.241722e+00	1.225600e+00
6.550000e+02	3.248112e+00	1.222389e+00
6.560000e+02	3.254503e+00	1.219178e+00
6.570000e+02	3.260836e+00	1.215753e+00
6.580000e+02	3.267137e+00	1.212212e+00
6.590000e+02	3.273438e+00	1.208672e+00
6.600000e+02	3.279721e+00	1.205080e+00
6.610000e+02	3.285905e+00	1.201213e+00
6.620000e+02	3.292089e+00	1.197347e+00
6.630000e+02	3.298273e+00	1.193481e+00
6.640000e+02	3.304366e+00	1.189412e+00
6.650000e+02	3.310406e+00	1.185225e+00
6.660000e+02	3.316445e+00	1.181039e+00
6.670000e+02	3.322474e+00	1.176832e+00
6.680000e+02	3.328341e+00	1.172333e+00
6.690000e+02	3.334208e+00	1.167835e+00
6.700000e+02	3.340075e+00	1.163336e+00
6.710000e+02	3.345851e+00	1.158699e+00
6.720000e+02	3.351519e+00	1.153901e+00
6.730000e+02	3.357187e+00	1.149102e+00
6.740000e+02	3.362855e+00	1.144303e+00
6.750000e+02	3.368339e+00	1.139271e+00
6.760000e+02	3.373782e+00	1.134185e+00
6.770000e+02	3.379225e+00	1.129100e+00
6.780000e+02	3.384635e+00	1.123980e+00
6.790000e+02	3.389828e+00	1.118626e+00
6.800000e+02	3.395021e+00	1.113272e+00
6.810000e+02	3.400213e+00	1.107917e+00
6.820000e+02	3.405295e+00	1.102462e+00
6.830000e+02	3.410215e+00	1.096858e+00
6.840000e+02	3.415135e+00	1.091254e+00
6.850000e+02	3.420055e+00	1.085650e+00
6.860000e+02	3.424786e+00	1.079900e+00
6.870000e+02	3.429412e+00	1.074069e+00
6.880000e+02	3.434038e+00	1.068238e+00
6.890000e+02	3.438663e+00	1.062406e+00
6.900000e+02	3.443028e+00	1.056405e+00
6.910000e+02	3.447341e+00	1.050370e+00
6.920000e+02	3.451654e+00	1.044335e+00
6.930000e+02	3.455967e+00	1.038301e+00
6.940000e+02	3.459956e+00	1.032091e+00
6.950000e+02	3.463939e+00	1.025879e+00
6.960000e+02	3.467923e+00	1.019667e+00
6.970000e+02	3.471876e+00	1.013441e+00
6.980000e+02	3.475517e+00	1.007079e+00
6.990000e+02	3.479158e+00	1.000717e+00
7.000000e+02	3.482798e+00	9.943547e-01
7.010000e+02	3.486385e+00	9.879742e-01
7.020000e+02	3.489673e+00	9.814910e-01
7.030000e+02	3.492961e+00	9.750079e-01
7.040000e+02	3.496248e+00	9.685247e-01
7.050000e+02	3.499475e+00	9.620260e-01
7.060000e+02	3.502402e+00	9.554513e-01
7.070000e+02	3.505329e+00	9.488766e-01
7.080000e+02	3.508256e+00	9.423019e-01
7.090000e+02	3.511130e+00	9.357185e-01
7.100000e+02	3.513693e+00	9.290822e-01
7.110000e+02	3.516255e+00	9.224460e-01
7.120000e+02	3.518817e+00	9.158097e-01
7.130000e+02	3.521353e+00	9.091713e-01
7.140000e+02	3.523549e+00	9.025034e-01
7.150000e+02	3.525745e+00	8.958355e-01
7.160000e+02	3.527941e+00	8.891676e-01
7.170000e+02	3.530137e+00	8.824997e-01
7.180000e+02	3.531987e+00	8.758298e-01
7.190000e+02	3.533819e+00	8.691597e-01
7.200000e+02	3.535650e+00	8.624897e-01
7.210000e+02	3.537481e+00	8.558197e-01
7.220000e+02	3.539033e+00	8.491704e-01
7.230000e+02	3.540505e+00	8.425269e-01
7.240000e+02	3.541977e+00	8.358835e-01
7.250000e+02	3.543448e+00	8.292401e-01
7.260000e+02	3.544723e+00	8.226271e-01
7.270000e+02	3.545842e+00	8.160380e-01
7.280000e+02	3.546962e+00	8.094488e-01
7.290000e+02	3.548082e+00	8.028597e-01
7.300000e+02	3.549101e+00	7.962942e-01
7.310000e+02	3.549879e+00	7.897855e-01
7.320000e+02	3.550656e+00	7.832769e-01
7.330000e+02	3.551434e+00	7.767682e-01
7.340000e+02	3.552212e+00	7.702596e-01
7.350000e+02	3.552667e+00	7.638535e-01
7.360000e+02	3.553115e+00	7.574500e-01
7.370000e+02	3.553563e+00	7.510464e-01
7.380000e+02	3.554010e+00	7.446429e-01
7.390000e+02	3.554266e+00	7.383170e-01
7.400000e+02	3.554398e+00	7.320413e-01
7.410000e+02	3.554530e+00	7.257656e-01
7.420000e+02	3.554663e+00	7.194899e-01
7.430000e+02	3.554739e+00	7.132418e-01
7.440000e+02	3.554571e+00	7.071148e-01
7.450000e+02	3.554403e+00	7.009878e-01
7.460000e+02	3.554235e+00	6.948607e-01
7.470000e+02	3.554067e+00	6.887337e-01
7.480000e+02	3.553699e+00	6.827256e-01
7.490000e+02	3.553248e+00	6.767659e-01
7.500000e+02	3.552798e+00	6.708061e-01
7.510000e+02	3.552347e+00	6.648464e-01
7.520000e+02	3.551849e+00	6.589202e-01
7.530000e+02	3.551134e+00	6.531444e-01
7.540000e+02	3.550419e+00	6.473686e-01
7.550000e+02	3.549704e+00	6.415928e-01
7.560000e+02	3.548989e+00	6.358170e-01
7.570000e+02	3.548127e+00	6.301597e-01
7.580000e+02	3.547167e+00	6.245823e-01
7.590000e+02	3.546206e+00	6.190048e-01
7.600000e+02	3.545246e+00	6.134274e-01
